 Time (s),Altitude (ft),Vertical velocity (ft/s),Total velocity (ft/s),Mass (lb),Mach number (?)
0,0,0,0,62.402,0.0075597
0.01,0,0,0,62.402,0.0075511
0.02,0.0019064,0.38129,0.38275,62.399,0.0075801
0.03,0.014111,2.0598,2.0676,62.386,0.0079133
0.04,0.046451,4.4083,4.4251,62.365,0.0088052
0.05,0.10239,6.7791,6.805,62.341,0.010081
0.06,0.18168,9.0795,9.1142,62.317,0.011506
0.07,0.28374,11.333,11.376,62.294,0.013067
0.08,0.40824,13.566,13.618,62.271,0.014724
0.09,0.555,15.787,15.847,62.248,0.016448
0.1,0.72406,18.024,18.093,62.225,0.01824
0.11,0.91563,20.292,20.369,62.201,0.020141
0.12,1.13,22.588,22.674,62.176,0.022093
0.13,1.3675,24.913,25.009,62.152,0.024088
0.14,1.6284,27.268,27.372,62.128,0.026124
0.15,1.913,29.652,29.765,62.103,0.028197
0.16,2.2216,32.065,32.187,62.079,0.030271
0.17,2.5545,34.507,34.639,62.054,0.032383
0.17947,2.8924,36.847,36.988,62.031,0.034416
0.18834,3.2291,39.063,39.212,62.008,0.036347
0.19671,3.5647,41.173,41.331,61.987,0.038193
0.20926,4.1015,44.361,44.533,61.961,0.041024
0.22808,4.9815,49.132,49.325,61.921,0.045286
0.25632,6.4695,56.258,56.483,61.861,0.051645
0.29868,9.0774,66.877,67.15,61.771,0.061057
0.34868,12.735,79.424,79.753,61.654,0.072285
0.39868,17.023,92.121,92.507,61.527,0.083784
0.44868,21.95,104.94,105.38,61.399,0.095293
0.49868,27.519,117.84,118.34,61.27,0.10685
0.54868,33.738,130.9,131.46,61.14,0.11855
0.59868,40.615,144.2,144.83,61.009,0.13054
0.64868,48.161,157.64,158.34,60.876,0.14268
0.69868,56.38,171.11,171.88,60.743,0.15483
0.74868,65.273,184.63,185.48,60.609,0.16698
0.79868,74.845,198.25,199.18,60.475,0.17922
0.84868,85.1,211.94,212.97,60.34,0.19168
0.89868,96.041,225.7,226.83,60.204,0.20413
0.94868,107.67,239.47,240.72,60.068,0.21661
0.99868,119.99,253.22,254.6,59.933,0.22911
1.0487,132.99,266.9,268.42,59.797,0.24147
1.0987,146.67,280.47,282.15,59.663,0.2538
1.1487,161.03,293.95,295.81,59.528,0.26606
1.1987,176.07,307.37,309.43,59.395,0.27829
1.2487,191.77,320.7,322.96,59.262,0.2904
1.2987,208.13,333.89,336.38,59.13,0.30242
1.3487,225.16,346.94,349.66,58.999,0.31438
1.3987,242.82,359.83,362.8,58.869,0.32615
1.4487,261.13,372.57,375.77,58.741,0.33789
1.4987,280.08,385.13,388.56,58.613,0.34936
1.5487,299.64,397.55,401.2,58.488,0.36071
1.5987,319.83,409.85,413.71,58.363,0.37199
1.6487,340.63,422.06,426.11,58.24,0.38316
1.6987,362.03,434.21,438.41,58.117,0.39427
1.7487,384.05,446.29,450.64,57.995,0.40528
1.7987,406.66,458.32,462.8,57.873,0.41627
1.8487,429.88,470.29,474.9,57.752,0.4272
1.8987,453.69,482.21,486.95,57.631,0.43807
1.9487,478.09,494,498.88,57.511,0.44876
1.9987,503.04,503.88,508.9,57.399,0.45776
2.0487,528.33,507.53,512.64,57.321,0.46114
2.0987,553.67,505.99,511.13,57.29,0.45983
2.1487,578.9,503.39,508.56,17.073,0.45751
2.1987,604,500.73,505.95,17.073,0.4552
2.2487,628.97,498.09,503.34,17.073,0.45298
2.2987,653.81,495.49,500.76,17.073,0.45074
2.3487,678.52,492.92,498.19,17.073,0.4485
2.3987,703.1,490.38,495.63,17.073,0.44624
2.4487,727.56,487.86,493.08,17.073,0.44391
2.4987,751.89,485.34,490.54,17.073,0.44162
2.5487,776.09,482.82,488.01,17.073,0.43942
2.5987,800.17,480.3,485.49,17.073,0.43723
2.6487,824.12,477.78,482.98,17.073,0.43494
2.6987,847.95,475.25,480.48,17.073,0.43272
2.7487,871.65,472.73,477.98,17.073,0.43051
2.7987,895.22,470.23,475.5,17.073,0.42836
2.8487,918.67,467.74,473.03,17.073,0.42616
2.8987,942,465.27,470.57,17.073,0.42395
2.9487,965.2,462.83,468.12,17.073,0.42174
2.9987,988.28,460.39,465.69,17.073,0.4195
3.0487,1011.2,457.97,463.26,17.073,0.41737
3.0987,1034.1,455.56,460.84,17.073,0.41527
3.1487,1056.8,453.16,458.43,17.073,0.41311
3.1987,1079.4,450.76,456.03,17.073,0.411
3.2487,1101.9,448.36,453.64,17.073,0.40891
3.2987,1124.2,445.97,451.25,17.073,0.40683
3.3487,1146.5,443.57,448.88,17.073,0.40469
3.3987,1168.6,441.18,446.51,17.073,0.40253
3.4487,1190.6,438.8,444.15,17.073,0.4004
3.4987,1212.5,436.43,441.8,17.073,0.39828
3.5487,1234.2,434.08,439.46,17.073,0.39623
3.5987,1255.9,431.74,437.13,17.073,0.3943
3.6487,1277.4,429.43,434.81,17.073,0.39211
3.6987,1298.8,427.12,432.5,17.073,0.39014
3.7487,1320.1,424.82,430.19,17.073,0.38804
3.7987,1341.3,422.53,427.9,17.073,0.3861
3.8487,1362.4,420.24,425.61,17.073,0.38403
3.8987,1383.3,417.95,423.33,17.073,0.38204
3.9487,1404.2,415.66,421.05,17.073,0.3801
3.9987,1424.9,413.38,418.79,17.073,0.37802
4.0487,1445.5,411.09,416.53,17.073,0.37608
4.0987,1466,408.82,414.27,17.073,0.37407
4.1487,1486.4,406.56,412.03,17.073,0.37213
4.1987,1506.7,404.31,409.79,17.073,0.37022
4.2487,1526.8,402.07,407.57,17.073,0.36832
4.2987,1546.9,399.85,405.35,17.073,0.36636
4.3487,1566.8,397.63,403.13,17.073,0.3644
4.3987,1586.6,395.43,400.93,17.073,0.36246
4.4487,1606.3,393.22,398.73,17.073,0.36053
4.4987,1625.9,391.03,396.54,17.073,0.35857
4.5487,1645.4,388.83,394.35,17.073,0.35665
4.5987,1664.8,386.64,392.18,17.073,0.35475
4.6487,1684.1,384.45,390,17.073,0.35287
4.6987,1703.3,382.27,387.84,17.073,0.35086
4.7487,1722.3,380.09,385.68,17.073,0.34889
4.7987,1741.3,377.91,383.53,17.073,0.34702
4.8487,1760.1,375.74,381.38,17.073,0.34504
4.8987,1778.9,373.59,379.24,17.073,0.34314
4.9487,1797.5,371.44,377.11,17.073,0.34115
4.9987,1816,369.3,374.99,17.073,0.33929
5.0487,1834.4,367.18,372.87,17.073,0.33743
5.0987,1852.7,365.06,370.76,17.073,0.33553
5.1487,1870.9,362.96,368.66,17.073,0.33358
5.1512,1871.8,362.85,368.55,17.072,0.33349
5.1549,1873.2,362.72,368.43,17.071,0.33338
5.1606,1875.2,362.61,368.31,17.071,0.33329
5.169,1878.3,362.58,368.29,17.07,0.33328
5.1816,1882.9,362.85,368.58,17.068,0.33357
5.2006,1889.8,363.97,369.74,17.065,0.33465
5.2291,1900.2,366.2,372.03,17.058,0.33674
5.2718,1915.9,369.54,375.48,17.046,0.3399
5.3218,1934.5,373.54,379.61,17.03,0.34367
5.3718,1953.2,377.61,383.81,17.013,0.34739
5.4218,1972.2,381.73,388.09,16.995,0.35122
5.4718,1991.4,385.94,392.46,16.977,0.35519
5.5218,2010.8,390.24,396.92,16.959,0.35919
5.5718,2030.4,394.61,401.46,16.941,0.36327
5.6218,2050.3,399.07,406.09,16.922,0.36752
5.6718,2070.4,403.63,410.82,16.903,0.3719
5.7218,2090.7,408.3,415.63,16.884,0.37628
5.7718,2111.2,413.05,420.53,16.864,0.3807
5.8218,2132,417.85,425.48,16.845,0.38521
5.8718,2153,422.69,430.47,16.825,0.38978
5.9218,2174.2,427.59,435.52,16.805,0.39445
5.9718,2195.7,432.51,440.61,16.785,0.39913
6.0218,2217.5,437.44,445.71,16.765,0.40376
6.0718,2239.5,442.33,450.79,16.744,0.40829
6.1218,2261.7,447.18,455.84,16.724,0.41284
6.1718,2284.2,451.85,460.71,16.704,0.41731
6.2218,2306.9,456.4,465.45,16.685,0.42164
6.2718,2329.8,460.83,470.07,16.666,0.42589
6.3218,2353,465.16,474.56,16.647,0.43004
6.3718,2376.3,469.37,478.93,16.628,0.43398
6.4218,2399.9,473.43,483.13,16.61,0.43781
6.4718,2423.7,477.32,487.16,16.592,0.44157
6.5218,2447.6,481.01,490.99,16.575,0.4451
6.5718,2471.8,484.47,494.6,16.558,0.44839
6.6218,2496.1,487.68,497.97,16.542,0.45148
6.6718,2520.5,490.63,501.08,16.526,0.45431
6.7218,2545.1,492.92,503.53,16.512,0.4566
6.7718,2569.8,493.59,504.3,16.501,0.45732
6.8218,2594.4,492.38,503.15,16.495,0.45634
6.8718,2619,490.26,501.04,16.492,0.4545
6.9218,2643.5,487.88,498.68,16.491,0.45244
6.9718,2667.8,485.44,496.23,16.491,0.45032
7.0218,2692,482.97,493.75,16.491,0.44806
7.0718,2716.1,480.46,491.25,16.491,0.44578
7.1218,2740,477.95,488.75,16.49,0.44358
7.1718,2763.9,475.45,486.26,16.49,0.44137
7.2218,2787.6,472.94,483.78,16.49,0.43916
7.2718,2811.2,470.45,481.32,16.49,0.43698
7.3218,2834.6,467.97,478.86,16.49,0.43481
7.3718,2858,465.51,476.41,16.49,0.43272
7.4218,2881.2,463.07,473.97,16.49,0.43059
7.4718,2904.3,460.63,471.54,16.49,0.42838
7.5218,2927.2,458.21,469.12,16.49,0.42622
7.5718,2950.1,455.79,466.71,16.49,0.42409
7.6218,2972.8,453.37,464.31,16.49,0.42194
7.6718,2995.4,450.97,461.92,16.49,0.41985
7.7218,3017.9,448.57,459.54,16.49,0.41773
7.7718,3040.3,446.17,457.17,16.49,0.41564
7.8218,3062.5,443.79,454.8,16.49,0.41362
7.8718,3084.7,441.42,452.45,16.49,0.41159
7.9218,3106.7,439.06,450.1,16.49,0.40945
7.9718,3128.6,436.7,447.76,16.49,0.40729
8.0218,3150.4,434.35,445.43,16.49,0.40527
8.0718,3172,432.02,443.11,16.49,0.40322
8.1218,3193.6,429.69,440.8,16.49,0.40107
8.1718,3215,427.36,438.5,16.49,0.39894
8.2218,3236.3,425.05,436.21,16.49,0.3969
8.2718,3257.5,422.74,433.92,16.49,0.39487
8.3218,3278.6,420.45,431.64,16.49,0.39284
8.3718,3299.5,418.16,429.37,16.49,0.39081
8.4218,3320.4,415.89,427.11,16.49,0.38877
8.4718,3341.1,413.61,424.86,16.49,0.38673
8.5218,3361.7,411.35,422.61,16.49,0.38476
8.5718,3382.3,409.09,420.37,16.49,0.38278
8.6218,3402.7,406.84,418.14,16.49,0.38072
8.6718,3422.9,404.59,415.92,16.49,0.37867
8.7218,3443.1,402.35,413.71,16.49,0.37674
8.7718,3463.2,400.11,411.5,16.49,0.37481
8.8218,3483.1,397.89,409.3,16.49,0.37286
8.8718,3503,395.68,407.11,16.49,0.37092
8.9218,3522.7,393.47,404.92,16.49,0.36892
8.9718,3542.3,391.27,402.75,16.49,0.36702
9.0218,3561.8,389.08,400.58,16.49,0.3651
9.0718,3581.2,386.89,398.41,16.49,0.36321
9.1218,3600.5,384.72,396.26,16.49,0.36136
9.1718,3619.7,382.54,394.11,16.49,0.35934
9.2218,3638.8,380.37,391.96,16.49,0.35733
9.2718,3657.7,378.2,389.83,16.49,0.35541
9.3218,3676.6,376.03,387.7,16.49,0.35348
9.3718,3695.3,373.87,385.57,16.49,0.35155
9.4218,3714,371.72,383.46,16.49,0.34959
9.4718,3732.5,369.58,381.35,16.49,0.3476
9.5218,3750.9,367.44,379.25,16.49,0.34564
9.5718,3769.2,365.32,377.16,16.49,0.3438
9.6218,3787.5,363.21,375.07,16.49,0.34197
9.6718,3805.6,361.11,372.99,16.49,0.34008
9.7218,3823.6,359.01,370.91,16.49,0.33824
9.7718,3841.5,356.93,368.84,16.49,0.33644
9.8218,3859.3,354.84,366.78,16.49,0.33455
9.8718,3877,352.76,364.73,16.49,0.33267
9.9218,3894.5,350.67,362.68,16.49,0.33082
9.9718,3912,348.59,360.63,16.49,0.32904
10.022,3929.4,346.51,358.59,16.49,0.32723
10.072,3946.7,344.43,356.56,16.49,0.32538
10.122,3963.8,342.36,354.53,16.49,0.32353
10.172,3980.9,340.29,352.51,16.49,0.32168
10.222,3997.9,338.23,350.5,16.49,0.31989
10.272,4014.7,336.18,348.49,16.49,0.31817
10.322,4031.5,334.14,346.49,16.49,0.31641
10.372,4048.1,332.12,344.49,16.49,0.31461
10.422,4064.7,330.09,342.5,16.49,0.31282
10.472,4081.2,328.08,340.52,16.49,0.31116
10.522,4097.5,326.07,338.54,16.49,0.30943
10.572,4113.8,324.07,336.56,16.49,0.30757
10.622,4129.9,322.06,334.59,16.49,0.30577
10.672,4146,320.06,332.63,16.49,0.30397
10.722,4161.9,318.06,330.67,16.49,0.3023
10.772,4177.8,316.06,328.72,16.49,0.30071
10.822,4193.5,314.07,326.77,16.49,0.29891
10.872,4209.2,312.07,324.83,16.49,0.29702
10.922,4224.7,310.08,322.89,16.49,0.29523
10.972,4240.2,308.09,320.96,16.49,0.29352
11.022,4255.5,306.11,319.04,16.49,0.29188
11.072,4270.8,304.14,317.11,16.49,0.2902
11.122,4286,302.17,315.2,16.49,0.28842
11.172,4301,300.22,313.29,16.49,0.28671
11.222,4316,298.27,311.39,16.49,0.28498
11.272,4330.8,296.32,309.49,16.49,0.28318
11.322,4345.6,294.38,307.59,16.49,0.28151
11.372,4360.3,292.45,305.7,16.49,0.27992
11.422,4374.9,290.52,303.82,16.49,0.27826
11.472,4389.3,288.6,301.94,16.49,0.27665
11.522,4403.7,286.68,300.06,16.49,0.2749
11.572,4418,284.76,298.19,16.49,0.27318
11.622,4432.2,282.84,296.33,16.49,0.27159
11.672,4446.3,280.93,294.47,16.49,0.26999
11.722,4460.3,279.01,292.61,16.49,0.26838
11.772,4474.2,277.1,290.76,16.49,0.26673
11.822,4488,275.19,288.91,16.49,0.26509
11.872,4501.7,273.29,287.07,16.49,0.2635
11.922,4515.3,271.39,285.23,16.49,0.26192
11.972,4528.8,269.49,283.4,16.49,0.26028
12.022,4542.3,267.6,281.57,16.49,0.25868
12.072,4555.6,265.71,279.75,16.49,0.25712
12.122,4568.8,263.83,277.93,16.49,0.25544
12.172,4582,261.95,276.12,16.49,0.25375
12.222,4595,260.07,274.31,16.49,0.2522
12.272,4608,258.2,272.5,16.49,0.25049
12.322,4620.9,256.33,270.7,16.49,0.24891
12.372,4633.6,254.47,268.91,16.49,0.24729
12.422,4646.3,252.61,267.11,16.49,0.24553
12.472,4658.9,250.75,265.33,16.49,0.24392
12.522,4671.4,248.9,263.55,16.49,0.24249
12.572,4683.8,247.06,261.77,16.49,0.24095
12.622,4696.1,245.22,260,16.49,0.2394
12.672,4708.3,243.38,258.23,16.49,0.23781
12.722,4720.4,241.55,256.46,16.49,0.23615
12.772,4732.5,239.72,254.7,16.49,0.23447
12.822,4744.4,237.88,252.95,16.49,0.23287
12.872,4756.2,236.05,251.2,16.49,0.23122
12.922,4768,234.22,249.45,16.49,0.22955
12.972,4779.7,232.39,247.71,16.49,0.22803
13.022,4791.2,230.57,245.97,16.49,0.22656
13.072,4802.7,228.75,244.24,16.49,0.22521
13.122,4814.1,226.94,242.51,16.49,0.22373
13.172,4825.4,225.14,240.78,16.49,0.22217
13.222,4836.6,223.34,239.06,16.49,0.22059
13.272,4847.8,221.53,237.35,16.49,0.21906
13.322,4858.8,219.74,235.64,16.49,0.21751
13.372,4869.7,217.94,233.93,16.49,0.21584
13.422,4880.6,216.14,232.23,16.49,0.21419
13.472,4891.3,214.34,230.53,16.49,0.21266
13.522,4902,212.55,228.83,16.49,0.21111
13.572,4912.6,210.76,227.14,16.49,0.20944
13.622,4923.1,208.96,225.46,16.49,0.20765
13.672,4933.5,207.17,223.78,16.49,0.20602
13.722,4943.8,205.38,222.1,16.49,0.20459
13.772,4954,203.6,220.43,16.49,0.20313
13.822,4964.2,201.82,218.76,16.49,0.20169
13.872,4974.2,200.06,217.1,16.49,0.20021
13.922,4984.2,198.29,215.44,16.49,0.19871
13.972,4994,196.54,213.79,16.49,0.19729
14.022,5003.8,194.78,212.14,16.49,0.19594
14.072,5013.5,193.04,210.49,16.49,0.19449
14.122,5023.1,191.3,208.85,16.49,0.19303
14.172,5032.7,189.56,207.22,16.49,0.19168
14.222,5042.1,187.82,205.58,16.49,0.19021
14.272,5051.4,186.09,203.96,16.49,0.18875
14.322,5060.7,184.35,202.33,16.49,0.18724
14.372,5069.9,182.62,200.71,16.49,0.18584
14.422,5079,180.88,199.1,16.49,0.18443
14.472,5088,179.14,197.49,16.49,0.18279
14.522,5096.9,177.4,195.88,16.49,0.1811
14.572,5105.7,175.66,194.28,16.49,0.17955
14.622,5114.4,173.91,192.69,16.49,0.17812
14.672,5123.1,172.17,191.09,16.49,0.17682
14.722,5131.7,170.43,189.51,16.49,0.17548
14.772,5140.1,168.7,187.92,16.49,0.174
14.822,5148.5,166.96,186.35,16.49,0.17268
14.872,5156.8,165.24,184.78,16.49,0.17131
14.922,5165,163.51,183.21,16.49,0.16987
14.972,5173.2,161.79,181.65,16.49,0.16861
15.022,5181.2,160.08,180.09,16.49,0.1672
15.072,5189.2,158.37,178.54,16.49,0.16578
15.122,5197.1,156.66,176.99,16.49,0.16449
15.172,5204.9,154.96,175.45,16.49,0.16313
15.222,5212.6,153.26,173.91,16.49,0.16185
15.272,5220.2,151.56,172.38,16.49,0.16051
15.322,5227.7,149.87,170.85,16.49,0.15907
15.372,5235.2,148.18,169.33,16.49,0.15771
15.422,5242.5,146.49,167.81,16.49,0.15624
15.472,5249.8,144.8,166.3,16.49,0.15474
15.522,5257,143.11,164.8,16.49,0.15343
15.572,5264.1,141.42,163.3,16.49,0.15215
15.622,5271.2,139.73,161.81,16.49,0.15079
15.672,5278.1,138.05,160.32,16.49,0.14936
15.722,5285,136.36,158.84,16.49,0.14789
15.772,5291.7,134.68,157.36,16.49,0.14668
15.822,5298.4,133,155.89,16.49,0.14556
15.872,5305,131.32,154.42,16.49,0.14421
15.922,5311.6,129.65,152.97,16.49,0.14275
15.972,5318,127.97,151.51,16.49,0.14152
16.022,5324.4,126.3,150.07,16.49,0.14043
16.072,5330.6,124.63,148.63,16.49,0.13931
16.122,5336.8,122.97,147.2,16.49,0.13802
16.172,5342.9,121.3,145.77,16.49,0.1369
16.222,5349,119.64,144.35,16.49,0.13569
16.272,5354.9,117.98,142.94,16.49,0.13425
16.322,5360.8,116.32,141.53,16.49,0.1331
16.372,5366.5,114.67,140.13,16.49,0.13204
16.422,5372.2,113.02,138.74,16.49,0.1309
16.472,5377.8,111.36,137.36,16.49,0.12956
16.522,5383.4,109.71,135.98,16.49,0.1282
16.572,5388.8,108.06,134.62,16.49,0.12697
16.622,5394.2,106.41,133.26,16.49,0.12574
16.672,5399.4,104.76,131.9,16.49,0.12444
16.722,5404.6,103.11,130.56,16.49,0.12312
16.772,5409.7,101.46,129.23,16.49,0.12202
16.822,5414.8,99.819,127.9,16.49,0.12105
16.872,5419.7,98.178,126.58,16.49,0.12003
16.922,5424.6,96.542,125.27,16.49,0.11913
16.972,5429.4,94.909,123.97,16.49,0.11809
17.022,5434.1,93.278,122.68,16.49,0.11693
17.072,5438.7,91.648,121.4,16.49,0.11574
17.122,5443.3,90.02,120.13,16.49,0.11472
17.172,5447.7,88.395,118.87,16.49,0.11361
17.222,5452.1,86.769,117.62,16.49,0.1122
17.272,5456.4,85.142,116.39,16.49,0.11077
17.322,5460.6,83.515,115.16,16.49,0.10952
17.372,5464.7,81.889,113.94,16.49,0.10862
17.422,5468.8,80.268,112.74,16.49,0.10771
17.472,5472.8,78.648,111.55,16.49,0.10633
17.522,5476.7,77.027,110.37,16.49,0.10499
17.572,5480.5,75.407,109.2,16.49,0.10408
17.622,5484.2,73.793,108.05,16.49,0.10345
17.672,5487.9,72.183,106.9,16.49,0.10257
17.722,5491.4,70.576,105.78,16.49,0.1016
17.772,5494.9,68.972,104.66,16.49,0.10065
17.822,5498.3,67.371,103.56,16.49,0.099707
17.872,5501.6,65.772,102.47,16.49,0.098846
17.922,5504.9,64.177,101.4,16.49,0.09807
17.972,5508.1,62.586,100.35,16.49,0.097391
18.022,5511.2,60.999,99.306,16.49,0.096493
18.072,5514.2,59.412,98.282,16.49,0.095418
18.122,5517.1,57.828,97.273,16.49,0.094622
18.172,5519.9,56.247,96.282,16.49,0.093569
18.222,5522.7,54.664,95.308,16.49,0.092167
18.272,5525.4,53.081,94.353,16.49,0.091429
18.322,5528,51.504,93.416,16.49,0.091058
18.372,5530.6,49.931,92.496,16.49,0.090267
18.422,5533,48.359,91.596,16.49,0.089322
18.472,5535.4,46.79,90.716,16.49,0.088618
18.522,5537.7,45.224,89.856,16.49,0.088103
18.572,5539.9,43.663,89.016,16.49,0.087444
18.622,5542.1,42.103,88.197,16.49,0.086661
18.672,5544.1,40.547,87.399,16.49,0.086207
18.722,5546.1,38.995,86.623,16.49,0.085794
18.772,5548,37.447,85.869,16.49,0.085228
18.822,5549.9,35.903,85.138,16.49,0.084616
18.872,5551.6,34.36,84.43,16.49,0.083857
18.922,5553.3,32.819,83.747,16.49,0.083092
18.972,5554.9,31.28,83.088,16.49,0.082301
19.022,5556.4,29.742,82.454,16.49,0.081746
19.072,5557.9,28.208,81.846,16.49,0.081035
19.122,5559.3,26.674,81.264,16.49,0.080491
19.172,5560.5,25.146,80.708,16.49,0.08036
19.222,5561.8,23.622,80.178,16.49,0.079699
19.272,5562.9,22.099,79.675,16.49,0.079212
19.322,5564,20.581,79.2,16.49,0.079146
19.372,5565,19.067,78.752,16.49,0.078808
19.422,5565.9,17.557,78.333,16.49,0.078237
19.472,5566.7,16.048,77.942,16.49,0.077816
19.522,5567.5,14.543,77.58,16.49,0.077504
19.572,5568.2,13.042,77.247,16.49,0.077097
19.622,5568.8,11.543,76.944,16.49,0.076593
19.672,5569.3,10.046,76.671,16.49,0.076015
19.722,5569.8,8.5514,76.427,16.49,0.075593
19.772,5570.2,7.0602,76.214,16.49,0.075454
19.822,5570.5,5.5739,76.031,16.49,0.075684
19.872,5570.7,4.0934,75.877,16.49,0.076093
19.922,5570.9,2.6189,75.752,16.49,0.076474
19.972,5571,1.1494,75.657,16.49,0.07667
20.022,5571,-0.31634,75.592,16.49,0.076414
20.072,5571,-1.7805,75.558,16.49,0.076245
20.122,5570.8,-3.2404,75.553,16.49,0.076518
20.172,5570.7,-4.697,75.578,16.49,0.076477
20.222,5570.4,-6.1511,75.634,16.49,0.076491
20.272,5570,-7.6022,75.719,16.49,0.076509
20.322,5569.6,-9.0512,75.833,16.49,0.07656
20.372,5569.1,-10.497,75.978,16.49,0.07667
20.422,5568.6,-11.941,76.151,16.49,0.076789
20.472,5567.9,-13.383,76.354,16.49,0.077123
20.522,5567.2,-14.822,76.585,16.49,0.076998
20.572,5566.5,-16.261,76.845,16.49,0.07696
20.622,5565.6,-17.697,77.133,16.49,0.077239
20.672,5564.7,-19.132,77.449,16.49,0.077496
20.722,5563.7,-20.565,77.792,16.49,0.07795
20.772,5562.6,-21.997,78.163,16.49,0.078425
20.822,5561.5,-23.428,78.56,16.49,0.078858
20.872,5560.3,-24.859,78.983,16.49,0.079221
20.922,5559,-26.289,79.433,16.49,0.079452
20.972,5557.7,-27.719,79.908,16.49,0.080027
21.022,5556.2,-29.149,80.408,16.49,0.080571
21.072,5554.7,-30.58,80.933,16.49,0.081121
21.122,5553.2,-32.012,81.482,16.49,0.081351
21.172,5551.5,-33.444,82.056,16.49,0.081844
21.222,5549.8,-34.878,82.653,16.49,0.082746
21.272,5548.1,-36.314,83.273,16.49,0.083143
21.322,5546.2,-37.75,83.916,16.49,0.082963
21.372,5544.3,-39.186,84.581,16.49,0.08336
21.422,5542.3,-40.625,85.267,16.49,0.083832
21.472,5540.2,-42.064,85.976,16.49,0.084244
21.522,5538.1,-43.506,86.705,16.49,0.085065
21.572,5535.9,-44.952,87.454,16.49,0.085826
21.622,5533.6,-46.401,88.224,16.49,0.086277
21.672,5531.2,-47.852,89.013,16.49,0.087038
21.722,5528.8,-49.308,89.821,16.49,0.087895
21.772,5526.3,-50.766,90.649,16.49,0.088344
21.822,5523.7,-52.227,91.494,16.49,0.088881
21.872,5521.1,-53.691,92.357,16.49,0.089675
21.922,5518.3,-55.16,93.238,16.49,0.090608
21.972,5515.6,-56.634,94.136,16.49,0.09155
22.022,5512.7,-58.114,95.051,16.49,0.09253
22.072,5509.7,-59.599,95.982,16.49,0.09328
22.122,5506.7,-61.086,96.929,16.49,0.093823
22.172,5503.6,-62.576,97.891,16.49,0.094703
22.222,5500.5,-64.072,98.868,16.49,0.095719
22.272,5497.2,-65.573,99.86,16.49,0.096561
22.322,5493.9,-67.078,100.87,16.49,0.097375
22.372,5490.5,-68.585,101.89,16.49,0.098026
